frame	position	phase	lumen_area	lumen_circumf	longest_distance	shortest_distance	elliptic_ratio	vector_length	vector_angle	measurement_1	measurement_2
1	0.00	-	9.70	11.06	3.65	3.38	1.15	0.67	240.90		
2	0.03	-	9.87	11.18	3.80	3.29	1.18	0.76	241.40		
3	0.07	-	10.63	11.65	4.07	3.30	1.25	0.94	237.66		
4	0.10	-	9.76	11.33	4.16	2.99	1.31	1.14	226.16		
5	0.13	-	8.51	10.56	3.86	2.78	1.36	1.16	235.68		
6	0.17	-	8.22	10.33	3.70	2.79	1.33	0.89	255.28		
7	0.20	-	6.63	9.27	3.31	2.49	1.19	0.66	298.57		
8	0.23	-	13.41	13.08	4.39	3.86	1.29	0.82	282.19		
9	0.27	-	9.96	11.24	3.79	3.31	1.16	1.12	235.49		
10	0.30	-	8.80	10.68	3.79	2.87	1.26	0.95	230.22		
11	0.33	-	10.06	11.33	3.91	3.25	1.18	0.85	233.02		
12	0.36	-	10.06	11.29	3.83	3.32	1.16	0.76	236.26		
13	0.40	-	10.09	11.32	3.85	3.27	1.15	0.79	238.70		
14	0.43	-	10.23	11.41	3.94	3.29	1.16	0.81	236.73		
15	0.46	-	9.89	11.23	3.91	3.25	1.21	0.96	231.23		
16	0.50	-	10.96	11.92	4.26	3.25	1.31	1.10	222.62		
17	0.53	-	9.69	11.16	3.93	3.10	1.27	1.15	231.65		
18	0.56	-	7.52	9.85	3.48	2.73	1.28	0.91	258.24		
19	0.60	-	6.88	9.43	3.38	2.56	1.32	0.82	288.40		
20	0.63	-	8.74	10.61	3.58	3.05	1.18	0.74	264.47		
21	0.66	-	11.44	12.01	3.95	3.75	1.05	1.15	239.41		
22	0.70	-	10.70	11.65	3.95	3.42	1.16	1.15	229.98		
23	0.73	-	10.30	11.44	3.87	3.33	1.17	0.97	235.66		
24	0.76	-	11.00	11.81	4.02	3.44	1.17	0.93	237.48		
25	0.80	-	10.80	11.69	3.95	3.45	1.14	0.93	238.16		
26	0.83	-	11.14	11.89	4.04	3.47	1.17	0.94	238.25		
27	0.86	-	10.62	11.61	3.97	3.42	1.16	0.99	231.95		
28	0.90	-	9.80	11.25	4.02	3.09	1.30	1.04	224.84		
29	0.93	-	10.00	11.39	4.05	3.08	1.31	1.11	224.31		
30	0.96	-	7.07	9.57	3.42	2.60	1.31	0.97	255.16		
31	1.00	-	6.93	9.48	3.39	2.57	1.32	0.93	285.34		
32	1.03	-	7.07	9.50	3.16	2.85	1.11	0.65	292.85		
33	1.06	-	13.32	13.01	4.38	3.76	1.16	0.94	243.70		
34	1.09	-	10.64	11.61	3.95	3.42	1.15	1.19	233.26		
35	1.13	-	10.29	11.43	3.89	3.31	1.18	1.03	232.14		
36	1.16	-	10.65	11.62	3.93	3.42	1.15	0.94	235.73		
37	1.19	-	10.93	11.77	3.98	3.48	1.15	0.93	236.97		
38	1.23	-	11.03	11.82	4.00	3.50	1.14	0.94	237.96		
39	1.26	-	11.20	11.91	4.06	3.55	1.14	1.03	234.49		
40	1.29	-	10.97	11.84	4.14	3.37	1.23	1.19	227.12		
41	1.33	-	10.40	11.58	4.08	3.18	1.28	1.19	227.77		
42	1.36	-	8.82	10.70	3.85	2.89	1.33	1.11	244.09		
43	1.39	-	7.19	9.61	3.37	2.68	1.26	0.89	271.95		
44	1.43	-	7.07	9.83	3.50	2.79	1.25	0.72	302.86		
45	1.46	-	15.16	13.96	4.80	3.87	1.24	0.81	248.65		
46	1.49	-	9.77	11.14	3.81	3.25	1.17	1.10	234.67		
47	1.53	-	10.02	11.30	3.89	3.23	1.21	0.97	230.57		
48	1.56	-	10.94	11.79	4.05	3.41	1.19	0.81	234.90		
49	1.59	-	11.15	11.88	4.02	3.50	1.15	0.75	244.01		
50	1.63	-	11.17	11.90	4.02	3.50	1.15	0.82	242.09		
51	1.66	-	10.91	11.77	4.02	3.41	1.18	0.91	240.08		
52	1.69	-	10.33	11.46	3.97	3.32	1.20	1.02	230.21		
53	1.72	-	10.40	11.56	4.06	3.26	1.24	1.14	228.22		
54	1.76	-	8.91	10.73	3.84	2.93	1.31	1.05	235.87		
55	1.79	-	8.16	10.22	3.57	2.88	1.24	0.90	258.94		
56	1.82	-	6.25	8.99	3.12	2.62	1.19	0.62	286.76		
57	1.86	-	13.77	13.42	4.65	3.59	1.29	0.72	267.00		
58	1.89	-	10.12	11.46	4.04	3.07	1.31	1.12	229.37		
59	1.92	-	9.46	11.02	3.85	3.06	1.26	0.83	223.59		
60	1.96	-	9.94	11.20	3.75	3.37	1.11	0.58	240.54		
61	1.99	-	10.64	11.59	3.87	3.50	1.11	0.64	253.15		
62	2.02	-	10.70	11.62	3.91	3.50	1.12	0.69	257.54		
63	2.06	-	11.14	11.87	3.98	3.55	1.12	0.77	257.99		
64	2.09	-	10.76	11.66	3.91	3.49	1.12	0.88	251.70		
65	2.12	-	10.12	11.33	3.85	3.33	1.16	0.93	246.73		
66	2.16	-	9.64	11.07	3.79	3.21	1.18	0.98	242.68		
67	2.19	-	9.12	10.79	3.75	3.04	1.23	0.92	263.62		
68	2.22	-	6.44	9.10	3.22	2.53	1.27	0.74	275.75		
69	2.26	-	8.49	10.38	3.54	3.04	1.16	0.92	262.66		
70	2.29	-	11.43	12.04	3.98	3.63	1.10	1.02	217.55		
71	2.32	-	9.20	10.80	3.67	3.19	1.15	0.77	216.11		
72	2.36	-	10.00	11.24	3.75	3.35	1.12	0.60	253.93		
73	2.39	-	10.49	11.51	3.87	3.44	1.12	0.63	269.64		
74	2.42	-	10.53	11.53	3.85	3.46	1.11	0.70	274.93		
75	2.45	-	10.89	11.73	3.93	3.49	1.13	0.78	277.95		
76	2.49	-	10.64	11.59	3.82	3.52	1.09	0.77	273.87		
77	2.52	-	10.06	11.27	3.74	3.43	1.09	0.87	254.61		
78	2.55	-	9.61	11.11	3.91	3.09	1.27	0.94	241.21		
79	2.59	-	8.16	10.24	3.61	2.86	1.26	0.84	249.01		
80	2.62	-	7.68	9.92	3.48	2.80	1.24	0.87	270.38		
81	2.65	-	7.87	10.10	3.67	2.75	1.33	0.96	299.45		
82	2.69	-	13.10	12.97	4.60	3.63	1.27	0.81	230.67		
83	2.72	-	11.45	12.03	4.00	3.62	1.10	1.18	220.44		
84	2.75	-	10.14	11.38	3.96	3.21	1.23	0.72	222.38		
85	2.79	-	10.44	11.48	3.81	3.49	1.09	0.57	245.68		
86	2.82	-	10.25	11.37	3.80	3.42	1.11	0.61	256.49		
87	2.85	-	10.67	11.62	3.93	3.46	1.14	0.66	264.57		
88	2.89	-	10.62	11.59	3.91	3.44	1.14	0.68	265.32		
89	2.92	-	10.69	11.62	3.86	3.51	1.10	0.87	256.08		
90	2.95	-	8.90	10.67	3.72	3.00	1.24	0.90	240.85		
91	2.99	-	9.04	10.80	3.84	2.97	1.29	0.98	240.39		
92	3.02	-	8.93	10.69	3.71	3.02	1.23	1.02	264.22		
93	3.05	-	6.10	8.84	3.08	2.49	1.24	0.71	294.34		
94	3.09	-	13.65	13.20	4.47	3.83	1.17	0.76	268.05		
95	3.12	-	10.30	11.48	3.99	3.22	1.24	1.06	225.00		
96	3.15	-	9.38	10.92	3.70	3.17	1.17	0.93	220.24		
97	3.18	-	9.91	11.19	3.75	3.33	1.13	0.67	240.15		
98	3.22	-	10.89	11.72	3.88	3.57	1.09	0.60	250.88		
99	3.25	-	10.97	11.76	3.92	3.57	1.10	0.65	255.20		
100	3.28	-	10.80	11.67	3.89	3.53	1.10	0.67	256.08		
101	3.32	-	11.50	12.07	4.08	3.61	1.13	0.81	248.30		
102	3.35	-	11.97	12.35	4.23	3.60	1.18	1.17	234.08		
103	3.38	-	9.13	10.88	3.91	2.94	1.33	1.03	233.51		
104	3.42	-	8.50	10.49	3.74	2.86	1.31	0.96	259.03		
105	3.45	-	6.29	9.00	3.16	2.57	1.23	0.62	283.21		
106	3.48	-	9.48	10.93	3.62	3.32	1.09	0.67	257.19		
107	3.52	-	11.08	11.85	4.03	3.50	1.15	1.20	229.87		
108	3.55	-	10.59	11.60	3.92	3.38	1.16	1.12	223.06		
109	3.58	-	9.97	11.24	3.82	3.30	1.16	0.81	230.76		
110	3.62	-	11.15	11.87	3.98	3.57	1.11	0.68	236.49		
111	3.65	-	11.15	11.87	3.92	3.59	1.09	0.67	238.18		
112	3.68	-	11.38	11.98	3.95	3.63	1.09	0.69	242.06		
113	3.72	-	11.31	11.97	4.00	3.54	1.13	0.73	241.98		
114	3.75	-	10.96	11.82	4.03	3.43	1.17	1.06	230.86		
115	3.78	-	9.66	11.20	4.04	3.01	1.34	1.08	232.22		
116	3.82	-	8.01	10.19	3.65	2.79	1.31	0.99	253.82		
117	3.85	-	7.32	9.68	3.40	2.72	1.25	0.78	279.36		
118	3.88	-	8.60	10.44	3.48	3.07	1.13	0.73	277.96		
119	3.91	-	12.03	12.36	4.23	3.67	1.15	1.04	236.88		
120	3.95	-	10.64	11.59	3.90	3.49	1.12	1.25	224.07		
121	3.98	-	10.24	11.41	3.92	3.29	1.19	0.90	225.64		
122	4.01	-	11.00	11.79	3.93	3.50	1.12	0.79	238.07		
123	4.05	-	11.33	11.96	3.98	3.59	1.11	0.77	239.98		
124	4.08	-	11.24	11.91	3.91	3.61	1.08	0.80	244.83		
125	4.11	-	11.17	11.87	3.91	3.58	1.09	0.77	244.08		
126	4.15	-	10.72	11.64	3.85	3.52	1.09	1.06	234.07		
127	4.18	-	9.93	11.34	4.04	3.10	1.30	1.13	231.91		
128	4.21	-	7.60	9.90	3.54	2.73	1.30	0.96	250.99		
129	4.25	-	7.79	9.98	3.49	2.83	1.23	0.88	277.95		
130	4.28	-	6.56	9.12	3.07	2.74	1.12	0.54	308.84		
131	4.31	-	13.99	13.31	4.44	3.97	1.12	0.93	227.03		
132	4.35	-	10.37	11.54	4.05	3.19	1.27	1.15	223.43		
133	4.38	-	9.49	10.98	3.74	3.21	1.16	0.85	222.87		
134	4.41	-	10.13	11.33	3.82	3.36	1.14	0.61	235.65		
135	4.45	-	10.53	11.53	3.86	3.43	1.12	0.62	260.48		
136	4.48	-	10.71	11.63	3.92	3.48	1.13	0.68	265.35		
137	4.51	-	11.00	11.78	3.92	3.54	1.11	0.78	260.36		
138	4.54	-	9.90	11.20	3.82	3.27	1.17	0.73	255.08		
139	4.58	-	10.03	11.30	3.90	3.25	1.20	0.91	244.47		
140	4.61	-	8.26	10.30	3.62	2.86	1.26	0.89	251.85		
141	4.64	-	8.90	10.63	3.66	3.09	1.19	0.91	272.35		
142	4.68	-	8.43	10.39	3.65	2.96	1.23	0.91	294.31		
143	4.71	-	14.46	13.65	4.75	3.76	1.26	0.87	246.94		
144	4.74	-	10.66	11.63	3.96	3.42	1.16	1.13	214.12		
145	4.78	-	8.70	10.57	3.71	2.93	1.26	0.63	220.30		
146	4.81	-	9.40	10.89	3.58	3.29	1.09	0.59	268.45		
147	4.84	-	9.84	11.14	3.72	3.38	1.10	0.71	285.23		
148	4.88	-	9.77	11.10	3.71	3.34	1.11	0.82	285.58		
149	4.91	-	9.92	11.21	3.80	3.33	1.14	0.89	286.11		
150	4.94	-	10.12	11.30	3.72	3.45	1.08	0.91	278.59		
151	4.98	-	10.39	11.45	3.82	3.49	1.10	0.82	272.43		
152	5.01	-	9.37	10.90	3.71	3.21	1.15	0.83	257.46		
153	5.04	-	10.44	11.48	3.80	3.45	1.10	0.94	276.16		
154	5.08	-	7.82	9.98	3.42	2.86	1.19	0.79	285.53		
155	5.11	-	10.96	11.81	3.94	3.63	1.09	0.76	266.98		
156	5.14	-	11.33	11.97	4.04	3.58	1.13	1.10	209.42		
157	5.18	-	8.20	10.20	3.46	3.04	1.14	0.75	222.82		
158	5.21	-	9.30	10.84	3.63	3.26	1.11	0.53	271.57		
159	5.24	-	10.02	11.24	3.70	3.42	1.08	0.78	288.49		
160	5.27	-	9.80	11.13	3.76	3.32	1.13	0.86	287.47		
161	5.31	-	10.02	11.27	3.82	3.32	1.15	0.98	291.80		
162	5.34	-	10.10	11.31	3.84	3.35	1.15	1.00	290.76		
163	5.37	-	10.13	11.30	3.73	3.45	1.08	0.92	276.55		
164	5.41	-	9.15	10.76	3.59	3.28	1.10	0.96	251.55		
165	5.44	-	8.82	10.60	3.66	3.05	1.20	0.87	263.05		
166	5.47	-	8.55	10.43	3.60	3.00	1.20	0.89	272.60		
167	5.51	-	7.93	10.04	3.45	2.91	1.19	0.84	282.77		
168	5.54	-	12.17	12.51	4.40	3.45	1.28	1.09	226.34		
169	5.57	-	10.25	11.45	3.97	3.21	1.24	1.06	213.98		
170	5.61	-	8.50	10.39	3.54	3.03	1.17	0.54	229.25		
171	5.64	-	9.79	11.10	3.63	3.43	1.06	0.55	279.40		
172	5.67	-	10.07	11.28	3.79	3.36	1.13	0.76	286.07		
173	5.71	-	10.04	11.26	3.78	3.38	1.12	0.82	288.92		
174	5.74	-	9.74	11.09	3.74	3.34	1.12	0.84	288.52		
175	5.77	-	10.59	11.55	3.79	3.57	1.06	0.84	277.00		
176	5.81	-	9.45	10.93	3.65	3.30	1.11	0.89	253.09		
177	5.84	-	8.59	10.49	3.67	2.94	1.25	0.89	252.43		
178	5.87	-	8.85	10.59	3.62	3.12	1.16	0.92	264.07		
179	5.90	-	7.65	9.89	3.43	2.81	1.22	0.78	288.86		
180	5.94	-	13.85	13.24	4.36	3.99	1.09	0.88	242.79		
181	5.97	-	9.79	11.35	4.07	3.00	1.36	1.07	225.49		
182	6.00	-	9.15	10.79	3.69	3.16	1.17	0.85	220.25		
183	6.04	-	9.18	10.81	3.72	3.12	1.20	0.63	240.70		
184	6.07	-	10.70	11.61	3.84	3.53	1.09	0.64	274.67		
185	6.10	-	10.19	11.35	3.78	3.38	1.12	0.70	277.30		
186	6.14	-	10.10	11.30	3.80	3.36	1.13	0.72	279.94		
187	6.17	-	10.61	11.55	3.78	3.59	1.05	0.74	274.58		
188	6.20	-	9.26	10.81	3.62	3.29	1.10	0.88	253.38		
189	6.24	-	8.70	10.51	3.60	3.08	1.17	0.92	249.39		
190	6.27	-	8.80	10.55	3.56	3.13	1.14	0.93	265.45		
191	6.30	-	7.99	10.12	3.57	2.84	1.26	0.83	282.39		
192	6.34	-	10.92	11.78	4.03	3.46	1.17	0.71	244.48		
193	6.37	-	10.53	11.61	4.04	3.26	1.24	1.13	221.79		
194	6.40	-	8.96	10.70	3.69	3.06	1.20	0.87	216.28		
195	6.44	-	9.82	11.17	3.82	3.27	1.17	0.67	238.60		
196	6.47	-	10.82	11.68	3.87	3.50	1.10	0.68	264.56		
197	6.50	-	10.58	11.56	3.86	3.46	1.12	0.71	270.45		
198	6.54	-	10.81	11.68	3.93	3.53	1.11	0.69	275.60		
199	6.57	-	10.75	11.63	3.81	3.62	1.05	0.75	270.37		
200	6.60	-	9.58	11.02	3.71	3.24	1.14	0.87	256.01		
201	6.63	-	9.81	11.18	3.89	3.21	1.21	1.05	243.50		
202	6.67	-	9.16	10.80	3.72	3.14	1.19	0.92	265.52		
203	6.70	-	7.17	9.62	3.45	2.65	1.30	0.71	274.46		
204	6.73	-	9.86	11.22	3.87	3.19	1.21	0.81	263.20		
205	6.77	-	11.33	11.97	4.04	3.54	1.14	1.05	227.27		
206	6.80	-	10.40	11.49	3.90	3.35	1.17	1.11	221.99		
207	6.83	-	9.46	10.95	3.73	3.22	1.16	0.73	228.60		
208	6.87	-	10.17	11.34	3.80	3.39	1.12	0.67	259.85		
209	6.90	-	10.31	11.42	3.81	3.38	1.13	0.69	267.83		
210	6.93	-	10.64	11.59	3.87	3.46	1.12	0.74	273.37		
211	6.97	-	10.85	11.69	3.83	3.57	1.07	0.74	275.07		
212	7.00	-	9.97	11.21	3.72	3.40	1.09	0.79	270.79		
213	7.03	-	8.92	10.64	3.63	3.15	1.15	0.94	245.00		
214	7.07	-	7.97	10.11	3.56	2.84	1.25	0.86	261.85		
215	7.10	-	7.46	9.76	3.42	2.79	1.23	0.81	275.09		
216	7.13	-	7.98	10.09	3.48	2.90	1.20	0.79	281.94		
217	7.17	-	11.63	12.22	4.18	3.53	1.18	1.09	231.00		
218	7.20	-	10.41	11.53	3.98	3.26	1.22	1.23	221.61		
219	7.23	-	9.16	10.81	3.73	3.10	1.20	0.84	226.59		
220	7.27	-	10.27	11.39	3.80	3.44	1.11	0.56	258.05		
221	7.30	-	10.59	11.55	3.82	3.51	1.09	0.75	274.66		
222	7.33	-	10.83	11.69	3.87	3.51	1.10	0.71	278.49		
223	7.37	-	10.39	11.45	3.77	3.49	1.08	0.79	280.53		
224	7.40	-	9.87	11.15	3.70	3.38	1.09	0.73	276.78		
225	7.43	-	8.45	10.36	3.55	3.02	1.18	0.80	260.69		
226	7.46	-	7.87	10.04	3.51	2.83	1.24	0.83	264.65		
227	7.50	-	9.52	10.98	3.73	3.24	1.15	0.95	279.45		
228	7.53	-	8.29	10.31	3.63	2.89	1.26	0.88	292.87		
229	7.56	-	13.84	13.24	4.43	3.90	1.14	0.87	245.27		
230	7.60	-	11.07	11.91	4.18	3.32	1.26	1.22	223.07		
231	7.63	-	9.93	11.26	3.88	3.22	1.21	0.88	219.43		
232	7.66	-	8.81	10.57	3.59	3.11	1.15	0.56	252.39		
233	7.70	-	10.31	11.39	3.70	3.52	1.05	0.79	283.93		
234	7.73	S	10.36	11.43	3.79	3.46	1.09	0.84	287.44		
235	7.76	-	10.55	11.54	3.85	3.48	1.11	0.90	291.07		
236	7.80	-	10.61	11.56	3.79	3.54	1.07	0.84	286.91		
237	7.83	-	9.91	11.19	3.75	3.37	1.11	0.85	283.97		
238	7.86	-	8.46	10.39	3.61	2.96	1.22	0.81	272.08		
239	7.90	-	10.10	11.30	3.76	3.38	1.11	0.92	289.97		
240	7.93	-	8.91	10.68	3.74	2.99	1.25	0.91	285.84		
241	7.96	-	11.76	12.26	4.13	3.52	1.17	0.76	256.17		
242	8.00	D	10.72	11.80	4.17	3.22	1.25	1.07	213.89		
243	8.03	-	8.23	10.21	3.46	2.99	1.16	0.73	227.53		
244	8.06	-	9.20	10.78	3.62	3.23	1.12	0.62	274.98		
245	8.09	-	10.22	11.35	3.73	3.49	1.07	0.90	296.78		
246	8.13	-	9.65	11.05	3.75	3.28	1.14	1.03	295.13		
247	8.16	-	9.64	11.05	3.79	3.27	1.16	1.10	297.08		
248	8.19	-	10.12	11.32	3.86	3.36	1.15	1.09	297.98		
249	8.23	S	10.22	11.35	3.80	3.42	1.11	1.02	290.98		
250	8.26	-	9.54	11.01	3.76	3.20	1.17	0.89	281.77		
251	8.29	-	10.41	11.47	3.84	3.46	1.11	1.02	289.66		
252	8.33	-	9.42	10.98	3.83	3.09	1.24	0.92	282.63		
253	8.36	-	10.02	11.32	3.91	3.20	1.22	0.92	260.27		
254	8.39	D	10.52	11.53	5.98	5.51	1.09	1.07	224.02		
255	8.43	-	8.98	10.66	3.56	3.18	1.12	0.69	231.03		
256	8.46	-	7.99	10.04	3.35	3.03	1.10	0.68	282.06		
257	8.49	-	9.54	10.98	3.71	3.27	1.13	1.03	295.19		
258	8.53	-	9.31	10.84	3.62	3.29	1.10	1.08	295.08		
259	8.56	-	9.88	11.20	3.84	3.31	1.16	1.21	301.28		
260	8.59	S	9.76	11.16	3.88	3.22	1.20	1.24	305.26		
261	8.63	-	9.42	10.91	3.71	3.28	1.13	1.12	300.07		
262	8.66	-	10.12	11.30	3.73	3.43	1.09	1.02	284.11		
263	8.69	-	7.83	9.98	3.46	2.89	1.20	0.90	295.35		
264	8.73	-	9.90	11.18	3.76	3.35	1.12	0.94	291.30		
265	8.76	-	8.44	10.36	3.55	3.00	1.18	0.95	282.27		
266	8.79	-	13.01	12.82	4.25	3.86	1.10	1.02	227.15		
267	8.82	D	10.49	11.54	6.14	5.32	1.21	1.09	225.42		
268	8.86	-	8.32	10.28	3.51	3.01	1.17	0.60	247.03		
269	8.89	-	9.05	10.68	3.52	3.27	1.08	0.80	290.44		
270	8.92	-	9.94	11.20	3.75	3.38	1.11	1.04	294.86		
271	8.96	-	9.89	11.18	3.78	3.36	1.13	1.14	298.85		
272	8.99	S	9.67	11.08	3.83	3.26	1.17	1.13	304.34		
273	9.02	-	10.32	11.40	3.77	3.52	1.07	1.14	303.88		
274	9.06	-	10.61	11.58	3.81	3.55	1.07	1.00	279.30		
275	9.09	-	8.81	10.58	3.65	3.06	1.19	0.84	281.68		
276	9.12	-	10.39	11.45	3.81	3.46	1.10	0.93	281.94		
277	9.16	-	9.70	11.12	3.85	3.16	1.22	0.89	284.54		
278	9.19	-	12.78	12.72	4.20	3.82	1.10	0.91	253.86		
279	9.22	D	9.89	11.24	6.11	5.07	1.18	0.96	220.62		
280	9.26	-	9.33	10.93	3.81	3.06	1.24	0.85	224.48		
281	9.29	-	8.48	10.35	3.46	3.12	1.11	0.68	268.04		
282	9.32	-	10.02	11.22	3.65	3.50	1.04	0.89	295.64		
283	9.36	-	9.01	10.68	3.64	3.16	1.15	1.02	296.74		
284	9.39	-	9.20	10.78	3.61	3.24	1.12	1.06	305.39		
285	9.42	S	10.22	11.36	3.81	3.42	1.11	1.09	306.55		
286	9.46	-	10.90	11.72	3.78	3.68	1.03	0.96	286.26		
287	9.49	-	9.04	10.73	3.71	3.08	1.20	0.86	276.36		
288	9.52	-	11.06	11.80	3.79	3.70	1.03	0.96	282.70		
289	9.55	-	8.56	10.51	3.77	2.88	1.31	0.88	283.79		
290	9.59	-	11.69	12.16	3.94	3.79	1.04	1.01	256.77		
291	9.62	D	10.44	11.53	6.12	5.18	1.18	1.02	227.59		
292	9.65	-	10.34	11.46	3.87	3.33	1.16	0.96	227.85		
293	9.69	-	7.41	9.77	3.46	2.69	1.28	0.66	259.01		
294	9.72	-	9.78	11.10	3.70	3.37	1.10	0.98	300.50		
295	9.75	-	9.37	10.89	3.69	3.24	1.14	0.99	300.30		
296	9.79	-	9.74	11.11	3.79	3.29	1.15	1.15	307.02		
297	9.82	S	9.57	11.00	3.72	3.31	1.12	1.09	309.06		
298	9.85	-	10.75	11.64	3.79	3.59	1.06	1.06	295.49		
299	9.89	-	9.72	11.10	3.79	3.26	1.16	0.96	277.81		
300	9.92	-	10.33	11.43	3.83	3.43	1.12	0.96	291.79		
301	9.95	-	8.79	10.62	3.74	2.96	1.26	0.89	284.28		
302	9.99	-	10.19	11.39	3.80	3.42	1.11	1.03	274.71		
303	10.02	D	10.87	11.75	6.19	5.43	1.16	1.00	232.94		
304	10.05	-	10.30	11.46	3.95	3.26	1.21	1.05	229.65		
305	10.09	-	8.19	10.24	3.58	2.89	1.24	0.70	254.36		
306	10.12	-	9.24	10.81	3.65	3.22	1.13	0.81	290.60		
307	10.15	-	9.66	11.03	3.64	3.37	1.08	0.98	295.01		
308	10.19	-	8.95	10.63	3.56	3.22	1.11	0.99	301.53		
309	10.22	S	8.98	10.67	3.64	3.15	1.16	1.08	304.94		
310	10.25	-	9.13	10.74	3.59	3.23	1.11	0.94	296.39		
311	10.28	-	10.27	11.40	3.84	3.38	1.14	0.94	276.43		
312	10.32	-	8.75	10.58	3.73	2.99	1.25	0.92	288.80		
313	10.35	-	8.98	10.66	3.61	3.16	1.14	0.92	285.87		
314	10.38	-	8.84	10.60	3.64	3.10	1.17	0.98	287.43		
315	10.42	-	11.55	12.07	3.96	3.70	1.07	1.05	235.85		
316	10.45	D	10.64	11.66	6.30	5.23	1.20	1.09	228.74		
317	10.48	-	8.05	10.19	3.61	2.79	1.29	0.78	248.50		
318	10.52	-	9.04	10.71	3.67	3.12	1.18	0.76	280.21		
319	10.55	-	10.21	11.35	3.76	3.44	1.09	0.98	292.64		
320	10.58	-	9.92	11.19	3.73	3.36	1.11	1.00	296.49		
321	10.62	S	10.27	11.39	3.81	3.48	1.10	1.04	301.97		
322	10.65	-	10.31	11.39	3.76	3.52	1.07	1.01	299.78		
323	10.68	-	10.28	11.38	3.72	3.53	1.05	0.94	296.09		
324	10.72	-	8.86	10.62	3.67	3.05	1.20	0.93	306.62		
325	10.75	-	9.24	10.81	3.67	3.22	1.14	0.82	304.18		
326	10.78	-	9.71	11.08	3.66	3.37	1.09	0.98	294.27		
327	10.82	-	11.35	12.06	4.12	3.46	1.19	1.00	247.70		
328	10.85	D	9.04	10.79	5.92	4.69	1.36	0.60	241.43		
329	10.88	-	8.18	10.22	3.54	2.91	1.22	0.68	276.89		
330	10.92	-	9.58	10.99	3.64	3.34	1.09	0.93	302.72		
331	10.95	-	9.97	11.23	3.81	3.36	1.13	1.14	302.77		
332	10.98	-	9.08	10.73	3.66	3.16	1.16	1.16	305.78		
333	11.02	-	9.50	11.02	3.85	3.15	1.22	1.26	310.84		
334	11.05	S	10.02	11.29	3.86	3.28	1.18	1.21	315.76		
335	11.08	-	10.40	11.47	3.87	3.46	1.12	1.22	309.78		
336	11.12	-	8.54	10.45	3.65	2.96	1.23	1.05	305.33		
337	11.15	-	10.05	11.27	3.77	3.41	1.11	1.08	310.96		
338	11.18	-	9.48	10.97	3.76	3.22	1.17	0.99	298.14		
339	11.21	-	11.39	12.01	3.86	3.74	1.03	1.07	262.11		
340	11.25	D	10.01	11.33	6.14	4.98	1.19	1.09	233.04		
341	11.28	-	9.28	10.87	3.72	3.12	1.19	0.91	240.51		
342	11.31	-	7.25	9.65	3.39	2.70	1.26	0.73	273.64		
343	11.35	-	9.63	11.02	3.65	3.35	1.09	1.10	303.00		
344	11.38	-	9.76	11.14	3.83	3.24	1.19	1.18	300.50		
345	11.41	-	9.69	11.10	3.84	3.23	1.19	1.21	307.06		
346	11.45	S	9.71	11.14	3.93	3.17	1.24	1.27	311.85		
347	11.48	-	9.95	11.20	3.74	3.45	1.08	1.22	312.07		
348	11.51	-	9.83	11.16	3.78	3.34	1.13	1.05	291.74		
349	11.55	-	9.31	10.89	3.78	3.13	1.21	1.13	303.46		
350	11.58	-	9.10	10.79	3.78	3.03	1.25	0.99	291.27		
351	11.61	-	9.57	11.06	3.78	3.27	1.16	1.13	281.31		
352	11.65	D	11.22	12.00	6.41	5.47	1.17	1.12	248.90		
353	11.68	-	9.02	10.74	3.71	3.07	1.21	1.00	242.60		
354	11.71	-	7.85	10.00	3.45	2.87	1.20	0.73	278.79		
355	11.75	-	10.35	11.43	3.82	3.44	1.11	1.19	301.47		
356	11.78	-	9.63	11.08	3.82	3.19	1.20	1.23	299.71		
357	11.81	-	9.71	11.14	3.89	3.17	1.23	1.30	307.66		
358	11.85	S	9.36	11.03	3.99	2.96	1.35	1.32	313.25		
359	11.88	-	9.10	10.82	3.87	2.99	1.29	1.33	312.33		
360	11.91	-	9.71	11.14	3.91	3.13	1.25	1.24	306.61		
361	11.95	-	9.07	10.80	3.83	2.97	1.29	1.16	313.76		
362	11.98	-	9.54	10.99	3.72	3.25	1.14	1.00	300.50		
363	12.01	-	10.04	11.29	3.77	3.40	1.11	1.11	293.15		
364	12.04	-	9.23	11.03	3.79	2.96	1.28	1.13	266.58		
365	12.08	D	9.05	10.75	5.81	4.86	1.20	0.91	250.94		
366	12.11	-	7.96	10.08	3.49	2.86	1.22	0.82	281.40		
367	12.14	-	9.93	11.25	3.93	3.25	1.21	1.25	303.96		
368	12.18	-	9.41	10.98	3.86	3.11	1.24	1.29	304.18		
369	12.21	-	9.46	11.06	3.95	3.02	1.31	1.34	306.06		
370	12.24	-	9.89	11.30	4.02	3.12	1.29	1.38	317.01		
371	12.28	S	9.13	10.84	3.87	3.04	1.27	1.35	317.92		
372	12.31	-	9.96	11.28	3.97	3.26	1.22	1.31	314.25		
373	12.34	-	8.48	10.46	3.72	2.87	1.29	1.21	313.76		
374	12.38	-	10.23	11.38	3.83	3.37	1.14	1.10	307.51		
375	12.41	-	9.39	10.90	3.68	3.23	1.14	1.08	291.59		
376	12.44	-	8.71	10.56	3.70	2.97	1.25	1.03	277.29		
377	12.48	D	8.49	10.43	5.64	4.62	1.25	0.86	255.49		
378	12.51	-	8.60	10.47	3.64	2.99	1.21	0.91	281.90		
379	12.54	-	9.34	11.01	3.95	2.95	1.34	1.28	298.72		
380	12.58	-	11.16	11.93	4.10	3.41	1.21	1.18	295.43		
381	12.61	-	10.94	11.84	4.19	3.32	1.26	1.23	296.09		
382	12.64	-	10.91	11.94	4.26	3.12	1.37	1.17	303.04		
383	12.68	-	9.71	11.20	4.02	3.11	1.29	1.34	318.53		
384	12.71	S	9.64	11.10	3.91	3.18	1.23	1.32	315.16		
385	12.74	-	8.74	10.60	3.76	2.96	1.27	1.26	314.11		
386	12.77	-	9.74	11.07	3.60	3.44	1.04	1.12	309.09		
