frame	position	phase	lumen_area	lumen_circumf	longest_distance	shortest_distance	elliptic_ratio	vector_length	vector_angle	measurement_1	measurement_2
1	0.00	-	9.27	10.86	3.72	3.25	1.07	0.16	325.41		
2	0.04	-	9.41	10.89	3.60	3.34	1.08	0.17	333.04		
3	0.08	-	9.48	10.94	3.62	3.32	1.09	0.17	336.11		
4	0.11	-	9.56	10.99	3.67	3.31	1.11	0.20	338.83		
5	0.15	-	9.65	11.05	3.68	3.31	1.11	0.19	342.61		
6	0.19	-	9.61	11.02	3.67	3.32	1.11	0.19	344.95		
7	0.22	-	9.71	11.07	3.65	3.35	1.09	0.19	343.15		
8	0.26	-	9.68	11.05	3.65	3.37	1.08	0.16	341.74		
9	0.29	-	9.55	10.97	3.59	3.38	1.06	0.15	340.28		
10	0.33	-	9.56	10.97	3.57	3.39	1.05	0.15	345.40		
11	0.36	-	9.40	10.89	3.56	3.41	1.04	0.17	332.86		
12	0.40	-	9.31	10.83	3.54	3.36	1.05	0.18	339.13		
13	0.43	-	9.37	10.88	3.59	3.36	1.07	0.19	334.59		
14	0.46	-	9.40	10.89	3.61	3.36	1.07	0.21	338.23		
15	0.50	-	9.43	10.90	3.60	3.36	1.07	0.22	339.52		
16	0.53	-	9.76	11.09	3.70	3.38	1.09	0.20	342.38		
17	0.57	-	9.65	11.03	3.66	3.37	1.09	0.21	341.17		
18	0.60	-	9.85	11.15	3.71	3.40	1.09	0.21	343.87		
19	0.64	-	9.64	11.03	3.68	3.35	1.10	0.18	342.02		
20	0.67	-	9.71	11.06	3.63	3.42	1.06	0.18	351.15		
21	0.70	-	9.52	10.95	3.61	3.36	1.07	0.22	349.45		
22	0.74	-	9.26	10.80	3.54	3.36	1.05	0.25	349.60		
23	0.77	-	9.11	10.71	3.48	3.36	1.04	0.25	344.55		
24	0.80	-	8.99	10.64	3.49	3.29	1.06	0.27	346.39		
25	0.84	-	9.16	10.74	3.52	3.33	1.06	0.26	348.10		
26	0.87	-	9.29	10.82	3.55	3.34	1.06	0.26	346.00		
27	0.91	-	9.30	10.82	3.54	3.36	1.05	0.25	343.93		
28	0.94	-	9.39	10.88	3.54	3.37	1.05	0.27	349.94		
29	0.97	-	9.62	11.01	3.55	3.42	1.04	0.26	351.09		
30	1.01	-	9.60	11.00	3.54	3.40	1.04	0.27	350.17		
31	1.04	-	9.55	10.97	3.55	3.44	1.03	0.26	354.96		
32	1.07	-	8.00	10.20	3.59	2.82	1.27	0.58	4.93		
33	1.10	-	8.26	10.34	3.72	2.85	1.28	0.68	15.66		
34	1.14	-	6.92	9.49	3.44	2.58	1.29	0.68	25.13		
35	1.17	-	6.71	9.61	3.67	2.22	1.65	0.59	44.02		
36	1.20	-	4.46	9.67	4.22	1.28	1.98	0.36	42.73		
37	1.24	-	4.37	9.64	4.27	1.32	2.10	0.53	100.60		
38	1.27	-	4.69	9.76	4.30	1.37	2.27	0.67	96.64		
39	1.30	-	4.41	9.71	4.31	1.29	2.08	0.60	92.66		
40	1.34	-	4.78	9.73	4.29	1.44	2.01	0.55	81.40		
41	1.37	-	4.99	9.74	4.25	1.49	1.78	0.62	84.39		
42	1.40	-	5.15	9.83	4.35	1.62	1.71	0.65	81.21		
43	1.44	-	5.37	9.76	4.24	1.64	1.93	0.73	79.81		
44	1.47	-	5.32	9.44	4.04	1.79	1.63	0.74	78.10		
45	1.50	-	5.70	9.74	4.17	1.93	1.59	0.72	72.20		
46	1.54	-	6.35	9.88	4.05	2.10	1.53	0.83	68.53		
47	1.57	-	6.54	9.87	3.97	2.23	1.50	0.82	62.26		
48	1.60	-	6.43	9.74	3.91	2.38	1.37	0.88	56.18		
49	1.63	-	7.68	10.03	3.64	2.69	1.35	0.73	27.40		
50	1.67	-	7.86	10.22	3.77	2.73	1.37	0.67	21.88		
51	1.70	-	7.98	10.31	3.82	2.75	1.33	0.66	17.88		
52	1.73	-	8.07	10.31	3.78	2.83	1.31	0.60	17.48		
53	1.77	-	8.29	10.42	3.80	2.92	1.25	0.58	12.48		
54	1.80	-	8.61	10.61	3.81	3.01	1.22	0.50	9.51		
55	1.83	-	8.84	10.72	3.79	3.10	1.21	0.48	12.20		
56	1.87	-	8.94	10.75	3.80	3.15	1.16	0.48	13.70		
57	1.90	-	8.53	10.53	3.76	3.06	1.15	0.50	21.71		
58	1.93	-	8.61	10.53	3.66	3.14	1.17	0.48	26.15		
59	1.97	-	8.20	10.21	3.53	3.01	1.14	0.35	37.66		
60	2.00	-	8.06	10.16	3.56	2.97	1.13	0.35	34.99		
61	2.03	-	8.06	10.13	3.47	2.99	1.12	0.33	32.29		
62	2.07	-	8.18	10.17	3.37	3.06	1.10	0.33	35.00		
63	2.10	-	8.49	10.36	3.38	3.15	1.07	0.34	31.25		
64	2.13	-	8.35	10.29	3.37	3.07	1.10	0.36	32.38		
65	2.16	-	8.27	10.27	3.42	3.02	1.13	0.41	26.39		
66	2.20	-	8.26	10.22	3.42	3.11	1.10	0.39	20.35		
67	2.23	-	8.22	10.18	3.41	3.07	1.11	0.41	16.26		
68	2.26	-	7.88	9.99	3.33	3.03	1.10	0.42	17.77		
69	2.30	-	8.25	10.19	3.37	3.11	1.09	0.42	23.29		
70	2.33	-	8.05	10.12	3.37	3.04	1.11	0.47	26.26		
71	2.36	-	7.75	9.91	3.27	2.99	1.09	0.43	25.93		
72	2.40	-	7.67	9.84	3.24	2.99	1.08	0.33	27.40		
73	2.43	-	7.49	9.72	3.21	2.95	1.09	0.29	21.62		
74	2.46	D	7.78	9.90	3.28	3.00	1.09	0.29	26.28		
75	2.50	-	7.72	9.87	3.25	2.98	1.09	0.30	24.30		
76	2.53	-	7.72	9.90	3.32	2.87	1.16	0.36	30.00		
77	2.56	-	7.64	9.86	3.32	2.89	1.15	0.36	26.94		
78	2.59	-	7.92	10.04	3.36	2.93	1.15	0.42	24.82		
79	2.63	-	7.98	10.04	3.30	3.04	1.09	0.36	23.68		
80	2.66	-	8.12	10.13	3.31	3.07	1.08	0.42	20.37		
81	2.69	S	7.97	10.04	3.32	3.01	1.10	0.38	22.64		
82	2.73	-	8.16	10.15	3.33	3.13	1.06	0.42	24.38		
83	2.76	-	8.08	10.10	3.35	3.07	1.09	0.40	25.63		
84	2.79	-	7.73	9.88	3.29	2.95	1.11	0.29	25.85		
85	2.83	-	7.73	9.87	3.29	3.00	1.10	0.27	27.60		
86	2.86	D	7.83	9.94	3.32	3.07	1.08	0.32	26.77		
87	2.89	-	7.51	9.74	3.29	2.95	1.11	0.30	20.88		
88	2.93	-	7.56	9.77	3.29	2.98	1.11	0.32	22.29		
89	2.96	-	7.09	9.47	3.16	2.84	1.11	0.36	16.49		
90	2.99	-	7.27	9.59	3.21	2.82	1.14	0.43	18.95		
91	3.02	-	7.91	10.01	3.35	2.96	1.13	0.48	18.52		
92	3.06	-	8.46	10.33	3.39	3.21	1.06	0.56	14.41		
93	3.09	S	8.07	10.09	3.34	3.08	1.09	0.48	17.06		
94	3.12	-	8.26	10.22	3.42	3.10	1.10	0.55	16.67		
95	3.16	-	7.64	9.82	3.25	2.98	1.09	0.49	16.71		
96	3.19	-	7.48	9.74	3.33	2.91	1.15	0.38	19.73		
97	3.22	-	7.75	9.89	3.32	3.00	1.11	0.28	14.93		
98	3.26	-	7.84	9.95	3.36	3.02	1.11	0.28	24.14		
99	3.29	D	7.66	9.83	3.30	2.96	1.12	0.26	23.71		
100	3.32	-	7.55	9.77	3.32	2.93	1.14	0.27	18.05		
101	3.36	-	7.40	9.68	3.28	2.92	1.12	0.31	19.51		
102	3.39	-	7.27	9.60	3.28	2.87	1.14	0.40	12.68		
103	3.42	-	7.18	9.52	3.21	2.87	1.12	0.47	11.70		
104	3.45	-	6.92	9.34	3.07	2.88	1.07	0.46	8.52		
105	3.49	S	7.15	9.49	3.13	2.93	1.07	0.49	9.07		
106	3.52	-	7.12	9.48	3.19	2.87	1.11	0.49	8.41		
107	3.55	-	7.15	9.50	3.20	2.89	1.11	0.49	9.00		
108	3.59	-	7.50	9.76	3.38	2.89	1.17	0.43	15.93		
109	3.62	-	7.62	9.83	3.38	2.95	1.14	0.35	19.41		
110	3.65	-	7.65	9.86	3.44	2.89	1.19	0.31	19.93		
111	3.69	D	7.53	9.78	3.38	2.86	1.18	0.27	19.89		
112	3.72	-	7.64	9.85	3.43	2.91	1.18	0.30	21.49		
113	3.75	-	7.56	9.80	3.38	2.89	1.17	0.29	20.65		
114	3.78	-	7.41	9.70	3.35	2.91	1.15	0.35	13.39		
115	3.82	-	7.27	9.61	3.34	2.87	1.16	0.40	9.47		
116	3.85	-	7.38	9.66	3.30	2.91	1.13	0.46	8.33		
117	3.88	-	7.49	9.72	3.26	2.94	1.11	0.49	6.56		
118	3.92	S	7.47	9.71	3.27	2.95	1.11	0.53	9.18		
119	3.95	-	7.35	9.64	3.25	2.92	1.12	0.51	10.77		
120	3.98	-	7.60	9.82	3.40	2.91	1.17	0.45	17.70		
121	4.02	-	7.28	9.63	3.32	2.83	1.18	0.44	16.06		
122	4.05	-	7.32	9.65	3.35	2.82	1.19	0.35	27.93		
123	4.08	-	7.11	9.51	3.28	2.76	1.19	0.38	23.65		
124	4.12	D	7.19	9.58	3.33	2.77	1.20	0.33	27.69		
125	4.15	-	7.23	9.60	3.35	2.78	1.20	0.34	23.71		
126	4.18	-	7.27	9.60	3.30	2.86	1.15	0.32	22.91		
127	4.21	-	7.33	9.64	3.31	2.87	1.15	0.36	22.23		
128	4.25	-	7.30	9.60	3.25	2.91	1.12	0.39	12.77		
129	4.28	-	7.38	9.67	3.30	2.88	1.15	0.45	10.02		
130	4.31	S	7.34	9.64	3.30	2.88	1.14	0.51	9.29		
131	4.35	-	7.32	9.62	3.28	2.89	1.13	0.51	8.18		
132	4.38	-	7.48	9.73	3.33	2.91	1.14	0.50	12.10		
133	4.41	-	7.37	9.67	3.31	2.87	1.15	0.46	21.03		
134	4.45	-	6.86	9.35	3.24	2.74	1.18	0.42	11.85		
135	4.48	-	6.71	9.24	3.18	2.69	1.18	0.37	16.53		
136	4.51	-	6.81	9.32	3.23	2.67	1.21	0.35	19.98		
137	4.55	D	6.87	9.36	3.24	2.68	1.21	0.36	18.54		
138	4.58	-	6.78	9.28	3.18	2.71	1.18	0.37	19.29		
139	4.61	-	6.57	9.14	3.17	2.65	1.20	0.37	14.29		
140	4.64	-	6.80	9.31	3.25	2.70	1.21	0.40	19.11		
141	4.68	-	7.11	9.50	3.27	2.82	1.16	0.46	20.59		
142	4.71	-	7.12	9.50	3.23	2.85	1.14	0.49	18.55		
143	4.74	S	7.15	9.52	3.27	2.80	1.17	0.53	15.35		
144	4.78	-	6.85	9.32	3.17	2.80	1.13	0.55	12.86		
145	4.81	-	6.94	9.38	3.20	2.77	1.15	0.51	11.16		
146	4.84	-	6.85	9.33	3.21	2.76	1.16	0.45	16.53		
147	4.88	-	6.85	9.32	3.13	2.80	1.12	0.36	20.18		
148	4.91	-	6.50	9.08	3.06	2.71	1.13	0.33	16.54		
149	4.94	D	6.42	9.02	3.07	2.69	1.14	0.34	17.75		
150	4.97	-	6.38	8.99	3.05	2.65	1.15	0.35	14.88		
151	5.01	-	6.59	9.13	3.08	2.74	1.12	0.35	17.52		
152	5.04	-	6.62	9.15	3.08	2.75	1.12	0.36	16.19		
153	5.07	-	6.61	9.16	3.14	2.71	1.16	0.42	14.76		
154	5.11	-	6.39	9.00	3.07	2.64	1.16	0.53	9.00		
155	5.14	-	6.66	9.17	3.10	2.75	1.13	0.54	6.98		
156	5.17	S	6.59	9.13	3.09	2.74	1.13	0.55	8.82		
157	5.21	-	6.62	9.14	3.08	2.76	1.11	0.54	9.90		
158	5.24	-	6.73	9.23	3.14	2.74	1.15	0.51	13.17		
159	5.27	-	6.69	9.20	3.03	2.77	1.10	0.45	15.00		
160	5.31	-	6.32	8.96	3.02	2.62	1.15	0.36	13.75		
161	5.34	-	6.31	8.95	3.01	2.62	1.15	0.34	11.83		
162	5.37	D	6.11	8.80	2.97	2.57	1.16	0.33	9.10		
163	5.40	-	6.18	8.85	2.99	2.60	1.15	0.35	13.73		
164	5.44	-	6.10	8.80	2.94	2.60	1.13	0.38	12.57		
165	5.47	-	6.25	8.89	3.00	2.64	1.13	0.42	14.24		
166	5.50	-	6.32	8.95	3.00	2.64	1.13	0.49	13.08		
167	5.54	-	6.65	9.17	3.07	2.76	1.11	0.50	12.34		
168	5.57	S	6.81	9.27	3.07	2.85	1.08	0.51	8.84		
169	5.60	-	6.73	9.23	3.09	2.78	1.11	0.53	11.08		
170	5.64	-	6.57	9.12	3.08	2.69	1.14	0.56	8.42		
171	5.67	-	6.60	9.14	3.01	2.75	1.10	0.48	12.36		
172	5.70	-	6.70	9.23	3.14	2.66	1.18	0.39	9.69		
173	5.74	-	6.49	9.09	3.10	2.62	1.18	0.34	16.77		
174	5.77	-	6.52	9.11	3.12	2.63	1.19	0.34	8.64		
175	5.80	D	6.48	9.09	3.11	2.58	1.21	0.35	14.10		
176	5.83	-	6.31	8.97	3.08	2.56	1.20	0.35	12.38		
177	5.87	-	6.31	8.98	3.07	2.53	1.21	0.39	10.32		
178	5.90	-	6.02	8.76	2.99	2.51	1.19	0.47	8.53		
179	5.93	-	6.13	8.82	2.96	2.59	1.14	0.53	6.93		
180	5.97	-	6.01	8.72	2.92	2.61	1.12	0.57	5.21		
181	6.00	S	6.20	8.87	2.97	2.64	1.13	0.56	6.36		
182	6.03	-	6.04	8.75	2.96	2.59	1.14	0.59	6.52		
183	6.07	-	6.37	9.01	3.08	2.57	1.20	0.55	8.33		
184	6.10	-	6.48	9.12	3.14	2.51	1.25	0.51	11.84		
185	6.13	-	6.43	9.06	3.10	2.54	1.22	0.39	18.51		
186	6.16	-	6.40	9.03	3.09	2.58	1.20	0.37	19.99		
187	6.20	D	6.37	9.01	3.08	2.56	1.20	0.37	19.27		
188	6.23	-	6.23	8.90	3.06	2.56	1.19	0.37	18.81		
189	6.26	-	6.21	8.91	3.03	2.51	1.21	0.38	15.85		
190	6.30	-	6.20	8.90	3.05	2.50	1.22	0.44	14.49		
191	6.33	-	6.14	8.87	3.06	2.47	1.24	0.52	13.27		
192	6.36	-	6.26	8.93	3.05	2.54	1.20	0.58	11.46		
193	6.40	-	6.36	8.98	3.04	2.62	1.16	0.58	12.02		
194	6.43	S	6.35	8.99	3.10	2.59	1.20	0.59	8.23		
195	6.46	-	6.33	8.98	3.08	2.57	1.20	0.57	8.33		
196	6.50	-	6.29	8.94	3.05	2.61	1.17	0.53	7.52		
197	6.53	-	6.30	8.95	3.08	2.58	1.19	0.46	14.35		
198	6.56	-	6.38	9.01	3.11	2.58	1.20	0.39	22.64		
199	6.59	-	6.39	9.03	3.13	2.56	1.23	0.38	21.95		
200	6.63	D	6.24	8.93	3.07	2.51	1.22	0.39	21.11		
201	6.66	-	6.10	8.84	3.08	2.47	1.25	0.42	17.02		
202	6.69	-	6.00	8.76	3.03	2.46	1.23	0.46	14.18		
203	6.73	-	6.02	8.75	3.02	2.50	1.21	0.49	10.98		
204	6.76	-	6.07	8.78	2.99	2.53	1.18	0.54	12.04		
205	6.79	-	6.14	8.82	2.97	2.62	1.13	0.56	10.84		
206	6.83	-	6.32	8.94	3.01	2.66	1.13	0.58	11.49		
207	6.86	S	6.26	8.90	3.01	2.64	1.14	0.57	10.38		
208	6.89	-	6.21	8.88	3.01	2.59	1.16	0.60	14.76		
209	6.93	-	6.38	9.00	3.08	2.61	1.18	0.56	16.99		
210	6.96	-	6.00	8.75	3.03	2.50	1.21	0.47	19.63		
211	6.99	-	5.94	8.72	3.05	2.42	1.26	0.46	19.20		
212	7.02	-	5.85	8.64	3.02	2.47	1.22	0.43	15.72		
213	7.06	D	5.81	8.63	3.04	2.41	1.26	0.45	15.48		
214	7.09	-	5.83	8.63	2.99	2.42	1.23	0.43	14.83		
215	7.12	-	5.73	8.54	2.97	2.45	1.21	0.47	14.55		
216	7.16	-	5.83	8.64	3.01	2.42	1.25	0.51	18.34		
217	7.19	-	5.88	8.66	2.98	2.48	1.20	0.58	13.24		
218	7.22	-	6.31	8.96	3.06	2.58	1.19	0.61	12.76		
219	7.26	S	6.20	8.88	3.03	2.55	1.19	0.61	12.68		
220	7.29	-	6.20	8.90	3.10	2.53	1.23	0.64	14.07		
221	7.32	-	5.92	8.69	3.01	2.47	1.22	0.60	12.88		
222	7.36	-	6.03	8.77	3.04	2.51	1.21	0.52	19.33		
223	7.39	-	5.97	8.79	3.12	2.35	1.32	0.50	23.90		
224	7.42	-	5.90	8.75	3.14	2.36	1.33	0.49	22.90		
225	7.45	D	5.88	8.73	3.11	2.34	1.33	0.49	22.72		
226	7.49	-	5.98	8.82	3.14	2.35	1.34	0.48	22.28		
227	7.52	-	5.74	8.61	3.05	2.34	1.30	0.49	21.15		
228	7.55	-	5.83	8.66	3.03	2.38	1.28	0.52	20.49		
229	7.59	-	5.73	8.56	2.97	2.40	1.24	0.55	14.07		
230	7.62	-	5.79	8.59	2.98	2.45	1.21	0.61	13.04		
231	7.65	-	5.88	8.65	3.01	2.50	1.21	0.64	12.07		
232	7.69	S	5.93	8.69	3.00	2.49	1.20	0.65	14.36		
233	7.72	-	5.86	8.67	3.05	2.42	1.26	0.64	15.06		
234	7.75	-	6.01	8.78	3.06	2.43	1.26	0.62	18.22		
235	7.78	-	5.75	8.62	3.07	2.31	1.33	0.57	20.80		
236	7.82	-	5.71	8.62	3.10	2.28	1.36	0.53	24.78		
237	7.85	-	5.75	8.64	3.10	2.32	1.34	0.51	24.79		
238	7.88	D	5.73	8.64	3.12	2.30	1.36	0.51	22.08		
239	7.92	-	5.73	8.61	3.09	2.34	1.32	0.51	25.77		
240	7.95	-	5.65	8.56	3.06	2.27	1.35	0.55	21.24		
241	7.98	-	5.62	8.52	3.05	2.32	1.31	0.59	20.80		
242	8.02	-	5.71	8.55	3.00	2.38	1.26	0.63	16.86		
243	8.05	-	5.89	8.68	3.03	2.45	1.24	0.65	14.66		
244	8.08	S	5.95	8.73	3.06	2.45	1.25	0.67	15.76		
245	8.12	-	5.96	8.73	3.05	2.47	1.23	0.66	15.52		
246	8.15	-	5.90	8.68	3.04	2.46	1.24	0.66	15.19		
247	8.18	-	5.74	8.61	3.08	2.36	1.31	0.62	23.39		
248	8.21	-	5.52	8.47	3.04	2.25	1.35	0.53	25.90		
249	8.25	-	5.66	8.58	3.08	2.29	1.34	0.51	27.71		
250	8.28	D	5.55	8.50	3.06	2.25	1.36	0.50	27.40		
251	8.31	-	5.61	8.55	3.08	2.28	1.35	0.50	27.80		
252	8.35	-	5.50	8.47	3.03	2.23	1.36	0.52	25.98		
253	8.38	-	5.54	8.46	3.00	2.29	1.31	0.56	24.49		
254	8.41	-	5.52	8.43	3.02	2.33	1.30	0.59	21.19		
255	8.45	-	5.65	8.50	2.97	2.38	1.25	0.64	19.78		
256	8.48	-	5.73	8.56	3.00	2.44	1.23	0.63	14.73		
257	8.51	S	5.70	8.52	2.96	2.44	1.21	0.63	18.94		
258	8.55	-	5.81	8.61	2.98	2.45	1.22	0.65	18.68		
259	8.58	-	5.82	8.63	3.03	2.45	1.24	0.66	21.05		
260	8.61	-	5.73	8.60	3.05	2.33	1.31	0.61	25.31		
261	8.64	-	5.42	8.41	3.02	2.22	1.36	0.55	28.79		
262	8.68	-	5.35	8.34	2.99	2.22	1.35	0.54	29.58		
263	8.71	D	5.37	8.35	2.99	2.25	1.33	0.55	30.22		
264	8.74	-	5.23	8.25	2.96	2.20	1.35	0.53	29.85		
265	8.78	-	5.33	8.33	2.99	2.21	1.35	0.56	28.15		
266	8.81	-	5.29	8.29	2.98	2.23	1.34	0.57	27.84		
267	8.84	-	5.58	8.48	3.01	2.33	1.29	0.61	22.68		
268	8.88	-	5.59	8.46	2.96	2.36	1.25	0.64	18.99		
269	8.91	S	5.79	8.61	3.01	2.42	1.24	0.67	20.88		
270	8.94	-	5.67	8.51	2.97	2.40	1.24	0.64	20.78		
271	8.98	-	5.73	8.57	3.02	2.40	1.25	0.68	21.85		
272	9.01	-	5.39	8.34	2.97	2.29	1.29	0.62	26.05		
273	9.04	-	5.01	8.08	2.94	2.17	1.36	0.53	28.56		
274	9.07	-	5.22	8.26	2.98	2.19	1.36	0.55	31.29		
275	9.11	-	5.31	8.31	2.98	2.22	1.34	0.53	32.21		
276	9.14	D	5.25	8.27	2.97	2.20	1.35	0.53	30.62		
277	9.17	-	5.29	8.29	2.96	2.24	1.32	0.53	32.42		
278	9.21	-	5.31	8.29	2.96	2.26	1.31	0.56	30.93		
279	9.24	-	5.19	8.19	2.93	2.25	1.30	0.60	27.18		
280	9.27	-	5.25	8.21	2.88	2.30	1.26	0.61	25.27		
281	9.31	-	5.59	8.46	2.97	2.39	1.25	0.66	24.55		
282	9.34	S	5.59	8.46	2.96	2.40	1.23	0.65	25.31		
283	9.37	-	5.57	8.43	2.94	2.40	1.22	0.66	24.80		
284	9.40	-	5.46	8.37	2.93	2.36	1.24	0.65	25.98		
285	9.44	-	5.04	8.04	2.82	2.24	1.26	0.56	31.05		
286	9.47	-	5.09	8.13	2.91	2.19	1.33	0.54	37.80		
287	9.50	-	5.22	8.26	2.99	2.18	1.38	0.53	38.98		
288	9.54	D	5.13	8.18	2.96	2.18	1.36	0.52	38.05		
289	9.57	-	5.11	8.17	2.94	2.17	1.36	0.51	37.34		
290	9.60	-	4.98	8.04	2.88	2.15	1.34	0.50	35.52		
291	9.64	-	4.89	7.96	2.83	2.15	1.31	0.53	33.62		
292	9.67	-	4.92	7.98	2.82	2.16	1.30	0.56	30.37		
293	9.70	-	5.14	8.13	2.87	2.26	1.27	0.60	27.95		
294	9.74	-	5.43	8.33	2.88	2.36	1.22	0.64	26.61		
295	9.77	S	5.26	8.20	2.86	2.32	1.23	0.61	27.04		
296	9.80	-	5.42	8.33	2.89	2.34	1.24	0.62	27.14		
297	9.83	-	5.06	8.08	2.84	2.21	1.29	0.60	29.88		
298	9.87	-	5.16	8.19	2.92	2.18	1.34	0.56	35.97		
299	9.90	-	5.26	8.31	3.01	2.15	1.40	0.54	39.50		
300	9.93	-	5.30	8.34	3.03	2.16	1.40	0.51	38.34		
301	9.97	D	5.27	8.30	2.99	2.17	1.38	0.50	37.14		
302	10.00	-	5.25	8.30	3.03	2.15	1.41	0.53	39.08		
303	10.03	-	5.18	8.23	2.97	2.17	1.37	0.56	37.38		
304	10.07	-	5.06	8.12	2.93	2.17	1.35	0.57	33.90		
305	10.10	-	5.17	8.16	2.89	2.24	1.29	0.62	32.14		
306	10.13	-	5.33	8.29	2.92	2.28	1.28	0.64	29.05		
307	10.17	S	5.38	8.32	2.92	2.30	1.27	0.65	30.18		
308	10.20	-	5.33	8.29	2.95	2.29	1.29	0.63	27.51		
309	10.23	-	5.49	8.40	2.93	2.34	1.25	0.62	32.80		
310	10.26	-	4.88	7.93	2.82	2.18	1.29	0.58	37.07		
311	10.30	-	4.70	7.82	2.81	2.07	1.36	0.50	43.36		
312	10.33	-	4.87	7.98	2.90	2.09	1.38	0.49	44.22		
313	10.36	-	4.99	8.11	2.95	2.08	1.42	0.49	45.53		
314	10.40	D	4.98	8.08	2.92	2.11	1.38	0.48	43.13		
315	10.43	-	4.66	7.82	2.83	2.03	1.39	0.52	42.87		
316	10.46	-	4.55	7.68	2.75	2.06	1.33	0.50	42.13		
317	10.50	-	4.61	7.73	2.76	2.07	1.34	0.56	36.88		
318	10.53	-	4.74	7.79	2.73	2.16	1.26	0.56	32.27		
319	10.56	-	5.09	8.07	2.83	2.25	1.26	0.59	31.02		
320	10.60	S	5.03	8.05	2.84	2.22	1.28	0.58	31.94		
321	10.63	-	5.22	8.18	2.86	2.28	1.25	0.60	34.96		
322	10.66	-	4.98	8.01	2.83	2.20	1.29	0.57	36.87		
323	10.69	-	5.02	8.10	2.93	2.14	1.37	0.54	44.15		
324	10.73	-	5.09	8.23	3.07	2.07	1.48	0.50	48.99		
325	10.76	-	5.11	8.27	3.09	2.03	1.52	0.50	46.26		
326	10.79	D	4.90	8.06	2.99	2.06	1.46	0.47	46.59		
327	10.83	-	4.97	8.13	3.04	2.04	1.49	0.51	46.83		
328	10.86	-	4.69	7.88	2.93	2.01	1.45	0.50	45.16		
329	10.89	-	4.85	7.97	2.91	2.08	1.40	0.53	43.45		
330	10.93	-	4.97	8.04	2.88	2.15	1.34	0.55	41.01		
331	10.96	-	5.06	8.09	2.88	2.17	1.32	0.58	37.21		
332	10.99	S	5.12	8.14	2.91	2.20	1.32	0.57	35.04		
333	11.03	-	5.09	8.13	2.90	2.18	1.33	0.60	36.21		
334	11.06	-	5.12	8.14	2.90	2.21	1.31	0.58	36.45		
335	11.09	-	4.99	8.07	2.90	2.14	1.36	0.59	42.23		
336	11.12	-	4.66	7.85	2.90	2.02	1.44	0.45	45.22		
337	11.16	-	4.87	7.99	2.91	2.11	1.38	0.46	52.05		
338	11.19	-	4.72	7.87	2.87	2.07	1.39	0.44	51.59		
339	11.22	D	4.73	7.92	2.94	2.01	1.46	0.47	48.59		
340	11.26	-	4.59	7.78	2.84	2.03	1.40	0.47	49.12		
341	11.29	-	4.52	7.71	2.83	2.01	1.41	0.50	49.64		
342	11.32	-	4.55	7.71	2.79	2.06	1.36	0.51	46.77		
343	11.36	-	4.81	7.90	2.84	2.13	1.33	0.53	43.38		
344	11.39	-	5.06	8.10	2.89	2.18	1.32	0.56	40.37		
345	11.42	S	5.14	8.19	2.94	2.18	1.35	0.55	36.07		
346	11.45	-	5.05	8.10	2.91	2.17	1.34	0.56	37.85		
347	11.49	-	4.89	7.96	2.83	2.16	1.31	0.53	42.15		
348	11.52	-	4.66	7.81	2.85	2.09	1.37	0.50	46.02		
349	11.55	-	4.45	7.69	2.85	1.96	1.46	0.45	51.35		
350	11.59	-	4.58	7.83	2.93	1.95	1.50	0.45	51.35		
351	11.62	-	4.57	7.85	2.95	1.92	1.54	0.44	53.00		
352	11.65	D	4.63	7.87	2.96	1.96	1.51	0.43	52.41		
353	11.69	-	4.61	7.84	2.92	1.97	1.48	0.47	51.96		
354	11.72	-	4.70	7.86	2.87	2.05	1.40	0.47	49.93		
355	11.75	-	4.62	7.79	2.85	2.05	1.39	0.49	47.62		
356	11.79	-	4.84	7.92	2.84	2.14	1.32	0.52	45.18		
357	11.82	S	5.00	8.06	2.92	2.17	1.35	0.52	40.96		
358	11.85	-	4.92	7.97	2.85	2.18	1.31	0.52	43.10		
359	11.88	-	4.93	7.99	2.86	2.16	1.32	0.53	43.40		
360	11.92	-	4.66	7.83	2.86	2.05	1.39	0.48	44.97		
361	11.95	-	4.58	7.82	2.93	1.95	1.50	0.44	48.78		
362	11.98	-	4.58	7.86	2.96	1.93	1.54	0.41	51.30		
363	12.02	-	4.74	7.98	2.99	1.98	1.51	0.42	55.61		
364	12.05	D	4.58	7.84	2.95	1.94	1.52	0.44	54.70		
365	12.08	-	4.64	7.92	2.98	1.94	1.54	0.43	52.11		
366	12.12	-	4.56	7.84	2.95	1.92	1.54	0.43	49.93		
367	12.15	-	4.67	7.90	2.94	1.98	1.48	0.45	48.66		
368	12.18	-	4.62	7.85	2.92	1.99	1.47	0.47	45.78		
369	12.22	-	4.92	8.06	2.98	2.09	1.42	0.47	42.09		
370	12.25	S	4.89	8.05	2.99	2.06	1.45	0.48	40.07		
371	12.28	-	4.96	8.10	3.00	2.09	1.43	0.48	42.27		
372	12.31	-	4.68	7.89	2.95	2.01	1.47	0.49	41.91		
373	12.35	-	4.54	7.78	2.90	1.94	1.49	0.49	51.57		
374	12.38	-	4.41	7.67	2.87	1.92	1.50	0.45	55.47		
375	12.41	-	4.51	7.79	2.96	1.93	1.53	0.44	56.21		
376	12.45	D	4.49	7.76	2.95	1.92	1.53	0.43	56.18		
377	12.48	-	4.38	7.64	2.84	1.92	1.48	0.46	57.41		
378	12.51	-	4.35	7.58	2.80	1.95	1.44	0.48	56.95		
379	12.55	-	4.26	7.50	2.76	1.92	1.44	0.50	56.50		
380	12.58	-	4.24	7.46	2.72	1.94	1.41	0.53	54.59		
381	12.61	-	4.44	7.66	2.78	1.96	1.42	0.52	50.68		
382	12.65	-	4.73	7.93	2.94	2.00	1.47	0.52	45.34		
383	12.68	S	4.98	8.14	3.00	2.04	1.47	0.51	46.35		
384	12.71	-	4.86	8.04	2.98	2.01	1.48	0.52	46.10		
385	12.74	-	4.74	7.99	3.01	2.00	1.42	0.54	51.37		
386	12.78	-	4.64	7.93	2.99	1.96	1.44	0.47	56.29		
387	12.81	-	4.45	7.84	3.04	1.89	1.48	0.44	60.13		
388	12.84	-	4.57	7.94	3.08	1.92	1.49	0.41	59.64		
389	12.88	D	4.51	7.88	3.04	1.90	1.49	0.41	58.55		
390	12.91	-	4.49	7.89	3.06	1.92	1.48	0.42	58.68		
391	12.94	-	4.49	7.86	3.04	1.92	1.48	0.41	57.08		
392	12.98	-	4.53	7.87	3.01	1.91	1.49	0.43	54.27		
393	13.01	-	4.59	7.89	3.01	1.96	1.45	0.46	52.33		
394	13.04	-	4.79	8.03	3.04	2.04	1.42	0.46	49.54		
395	13.08	S	4.79	8.00	2.98	2.02	1.45	0.47	47.31		
396	13.11	-	4.71	7.93	2.96	2.01	1.45	0.46	49.01		
397	13.14	-	4.68	7.94	2.98	1.98	1.46	0.47	49.45		
398	13.17	-	4.54	7.86	2.96	1.92	1.46	0.46	57.34		
399	13.21	-	4.56	7.88	3.01	1.90	1.56	0.39	56.14		
400	13.24	-	4.67	8.00	3.08	1.90	1.62	0.34	58.48		
401	13.27	-	4.69	8.02	3.07	1.88	1.63	0.34	59.63		
402	13.31	D	4.74	8.07	3.10	1.89	1.64	0.35	62.27		
403	13.34	-	4.73	8.08	3.11	1.89	1.65	0.35	60.33		
